Time (s),Steering angle (rad),Current (A)
0.00446796,-0.00048114,0.01953602
0.01786709,-0.00150004,9.90231991
0.02628899,-0.02286853,2.97191709
0.03599310,-0.04372757,4.50549453
0.04568601,-0.07384158,5.23565352
0.05339408,-0.10559714,6.18070841
0.06098700,-0.12985250,5.19658148
0.07234001,-0.16092879,5.79731405
0.07991505,-0.19814676,5.44810772
0.08836007,-0.22500596,5.35531163
0.09812713,-0.25862949,5.71428597
0.10859013,-0.29061147,0.03418803
0.11927199,-0.30982896,0.02686203
0.12842011,-0.31914053,0.03907204
0.13918304,-0.32120662,8.22466433
0.14771914,-0.34175434,0.02686203
0.15695405,-0.36450966,0.09035409
0.16616011,-0.39637842,0.04639805
0.17548299,-0.42151117,1.22832723
0.18462300,-0.45309691,0.03174603
0.19361711,-0.48403169,0.92307694
0.20170617,-0.51697596,0.02686203
0.21227598,-0.54629749,0.03418803
0.21995497,-0.57717567,0.02197802
0.23018312,-0.60015741,0.02686203
0.24030399,-0.62461089,0.01465201
0.24808097,-0.64269627,0.02197802
0.25808001,-0.65679098,0.03907204
0.26935816,-0.67388578,0.01709402
0.27843308,-0.69154662,0.03174603
0.28784895,-0.70852820,3.30158740
0.29496908,-0.73513268,2.23687425
0.30195212,-0.75842575,2.15628818
0.31260204,-0.77837911,2.19780222
0.32264614,-0.81477630,2.11233214
0.33174396,-0.84268270,0.03174603
0.34133697,-0.86311720,0.02197802
0.35167003,-0.87574018,0.02442003
0.36039495,-0.87939122,0.01709402
0.37001014,-0.87990067,0.02197802
0.37978816,-0.88032521,0.01953602
0.38970113,-0.88485363,4.73504275
0.39681506,-0.90517492,0.02442003
0.40727711,-0.91986399,0.03418803
0.41799903,-0.94312876,0.03907204
0.42833710,-0.96101602,0.01465201
0.43979096,-0.97862026,0.01221001
0.44895601,-0.99687546,0.02197802
0.45903707,-1.00983807,0.04395605
0.46834302,-1.02364976,0.02930403
0.47935104,-1.03570668,0.01465201
0.48816800,-1.04716925,0.02197802
0.49769807,-1.05619779,0.03663004
0.50553799,-1.06400932,0.01953602
0.51655817,-1.06924531,0.02197802
0.52638698,-1.07521716,0.03418803
0.53584409,-1.07954746,0.01953602
0.54418206,-1.08280227,0.03418803
0.55443001,-1.08619858,0.01709402
0.56474400,-1.08914206,0.01221001
0.57463312,-1.09180251,0.01709402
0.58393812,-1.09440635,0.01221001
0.59401107,-1.09734982,0.01953602
0.60328007,-1.10083105,0.01221001
0.60887814,-1.10408585,0.03907204
0.61972117,-1.10637836,0.02197802
0.63045716,-1.11025583,0.02197802
0.63991213,-1.11359554,0.01465201
0.65030098,-1.11619938,0.02686203
0.66185808,-1.11866171,0.01709402
0.67216206,-1.12109574,0.01953602
0.68138504,-1.12279389,0.02686203
0.69093704,-1.12401091,0.01709402
0.70040107,-1.12460526,0.02686203
0.70990396,-1.12454866,0.03418803
0.71952605,-1.12409581,0.01465201
0.72890902,-1.12333164,0.01221001
0.73809004,-1.12219954,0.01465201
0.74910712,-1.12081271,0.02197802
0.75916314,-1.11900134,0.02197802
0.76865697,-1.11758621,0.02197802
0.78031802,-1.11642580,0.01221001
0.79097700,-1.11537860,0.03663004
0.80288005,-1.11472764,0.01709402
0.82261014,-1.11430310,0.01953602
0.82836914,-1.11387856,0.02686203
0.83340311,-1.11370875,0.01221001
0.83908701,-1.11351063,0.02442003
0.84419513,-1.11322760,0.01953602
0.84915614,-1.11291627,0.01221001
0.85723305,-1.11260494,0.02930403
0.86530995,-1.11198229,0.03907204
0.87041903,-1.11141623,0.02442003
0.87614417,-1.11096339,0.02197802
0.88119507,-1.11056715,0.01221001
0.88800812,-1.11017092,0.01221001
0.89390111,-1.10957656,0.01953602
0.89914012,-1.10918033,0.01221001
0.90455103,-1.10886900,0.03174603
0.91224217,-1.10852936,0.02930403
0.92035913,-1.10810482,0.01953602
0.92548108,-1.10768029,0.02442003
0.93015313,-1.10745386,0.01709402
0.93508315,-1.10722744,0.02686203
0.93973517,-1.10702932,0.00976801
0.94440007,-1.10685951,0.01709402
0.94896007,-1.10668969,0.02930403
0.95346808,-1.10657648,0.02197802
0.95929098,-1.10643497,0.03663004
0.96401811,-1.10635006,0.02686203
0.96868014,-1.10629346,0.03174603
0.97327495,-1.10623685,0.01953602
0.97790599,-1.10618025,0.01709402
0.98254609,-1.10609534,0.01953602
0.98736811,-1.10603873,0.02197802
0.99222803,-1.10595382,0.01221001
0.99715900,-1.10584061,0.04639805
1.00178003,-1.10572740,0.02442003
1.00713015,-1.10558589,0.02197802
1.01352501,-1.10538777,0.01465201
1.01855612,-1.10510475,0.01709402
1.02338409,-1.10487832,0.01465201
1.02807903,-1.10465190,0.00976801
1.03278303,-1.10439718,0.03174603
1.03737617,-1.10417076,0.01465201
1.04201508,-1.10400094,0.03174603
1.04665399,-1.10380282,0.01465201
1.05168605,-1.10368961,0.03174603
1.05634904,-1.10360471,0.03174603
1.06100202,-1.10354810,0.02442003
1.06547117,-1.10351980,0.01953602
1.07008696,-1.10351980,0.03663004
1.07495999,-1.10351980,0.02930403
1.07959199,-1.10351980,0.01953602
1.08428311,-1.10351980,0.01709402
1.08979011,-1.10351980,0.01221001
1.10091805,-1.10351980,0.01465201
1.10947514,-1.10351980,0.03174603
1.12084198,-1.10351980,0.01709402
1.12654805,-1.10351980,0.03418803
1.13182902,-1.10351980,0.01465201
1.13758802,-1.10351980,0.01953602
1.14261603,-1.10351980,0.04395605
1.14782715,-1.10351980,0.01709402
1.15284014,-1.10351980,0.00976801
1.15781212,-1.10351980,0.02197802
1.16737914,-1.10351980,0.01465201
1.17600799,-1.10351980,0.01709402
1.18535495,-1.10351980,0.03418803
1.19181895,-1.10351980,0.01465201
1.19716215,-1.10351980,0.02197802
1.20215297,-1.10351980,0.01221001
1.20809603,-1.10351980,0.02686203
1.21423006,-1.10351980,0.01465201
1.22334313,-1.10351980,0.01709402
1.23374414,-1.10351980,0.01709402
1.24334097,-1.10351980,0.01953602
1.24848914,-1.10351980,0.02442003
1.25394511,-1.10351980,0.02686203
1.25918007,-1.10351980,0.01953602
1.26495099,-1.10351980,0.01221001
1.26994896,-1.10351980,0.01465201
1.27513695,-1.10351980,0.01953602
1.28233004,-1.10351980,0.01953602
1.28769898,-1.10351980,0.02686203
1.29310107,-1.10351980,0.01953602
1.29811215,-1.10351980,0.03663004
1.30587411,-1.10351980,0.02442003
1.31755114,-1.10351980,0.01465201
1.32446599,-1.10351980,0.01465201
1.33004498,-1.10351980,0.02442003
1.33529496,-1.10351980,0.01953602
1.34100008,-1.10351980,0.01953602
1.34599495,-1.10351980,0.02686203
1.35117316,-1.10351980,0.01465201
1.35665607,-1.10351980,0.01953602
1.36160612,-1.10351980,0.01953602
1.36654210,-1.10351980,0.01221001
1.37247396,-1.10351980,0.01465201
1.38155007,-1.10351980,0.01953602
1.38799405,-1.10351980,0.02442003
1.39308596,-1.10351980,0.01953602
1.39806795,-1.10351980,0.02442003
1.40404010,-1.10351980,0.02930403
1.40909600,-1.10351980,0.03174603
1.41427016,-1.10351980,0.02197802
1.41948104,-1.10351980,0.03907204
1.42455196,-1.10351980,0.02442003
1.43093514,-1.10351980,0.01465201
1.43604016,-1.10351980,0.01709402
1.44136906,-1.10351980,0.01709402
1.45342112,-1.10351980,0.01465201
1.45905304,-1.10351980,0.01465201
1.46409416,-1.10351980,0.01953602
1.46905613,-1.10351980,0.01953602
1.47767901,-1.10351980,0.01709402
1.48471212,-1.10351980,0.01953602
1.49009895,-1.10351980,0.01953602
1.49532294,-1.10351980,0.02197802
1.50100207,-1.10351980,0.02197802
1.50604296,-1.10351980,0.01709402
1.51124907,-1.10351980,0.01953602
1.51652813,-1.10351980,0.00976801
1.52232814,-1.10351980,0.02197802
1.52763700,-1.10351980,0.02686203
1.53432798,-1.10351980,0.02197802
1.54390812,-1.10351980,0.01465201
1.55517602,-1.10351980,0.03174603
1.56096506,-1.10351980,0.01709402
1.56598210,-1.10351980,0.01221001
1.57167506,-1.10351980,0.01953602
1.57736206,-1.10351980,0.00976801
1.58241105,-1.10351980,0.02197802
1.58760214,-1.10351980,0.02442003
1.59257412,-1.10351980,0.03663004
1.59781313,-1.10351980,0.02197802
1.60622597,-1.10351980,0.01953602
1.61449313,-1.10351980,0.02442003
1.61990404,-1.10351980,0.01709402
1.62527013,-1.10351980,0.01953602
1.63365102,-1.10351980,0.01709402
1.64153004,-1.10351980,0.02197802
1.64851713,-1.10351980,0.01709402
1.65350008,-1.10351980,0.01465201
1.65913916,-1.10351980,0.01465201
1.66513014,-1.10351980,0.01953602
1.67401314,-1.10351980,0.02686203
1.68185210,-1.10351980,0.03174603
1.68819308,-1.10351980,0.02930403
1.69351101,-1.10351980,0.02442003
1.69854212,-1.10351980,0.01953602
1.70499897,-1.10351980,0.01953602
1.71004915,-1.10351980,0.01709402
1.71632409,-1.10351980,0.01465201
1.72173214,-1.10351980,0.01465201
1.72728515,-1.10351980,0.01709402
1.73515606,-1.10351980,0.02686203
1.74015498,-1.10351980,0.01953602
1.74483299,-1.10351980,0.00976801
1.74940109,-1.10351980,0.03174603
1.75399494,-1.10351980,0.01465201
1.75861907,-1.10351980,0.02442003
1.76339912,-1.10351980,0.02197802
1.76815701,-1.10351980,0.02442003
1.77280307,-1.10351980,0.02686203
1.77744603,-1.10351980,0.01709402
1.78206205,-1.10351980,0.03174603
1.78691506,-1.10351980,0.00976801
1.79154110,-1.10351980,0.02686203
1.79618001,-1.10351980,0.01953602
1.80078316,-1.10351980,0.02197802
1.80532098,-1.10351980,0.03663004
1.80995202,-1.10351980,0.03907204
1.81606412,-1.10351980,0.02442003
1.82137609,-1.10351980,0.01709402
1.82644606,-1.10351980,0.01465201
1.83159995,-1.10351980,0.01465201
1.84084511,-1.10351980,0.01465201
1.85055399,-1.10351980,0.01709402
1.85591006,-1.10351980,0.02197802
1.86119914,-1.10351980,0.01953602
1.86692500,-1.10351980,0.01953602
1.87200904,-1.10351980,0.01953602
1.87697506,-1.10351980,0.02442003
1.88174415,-1.10351980,0.01221001
1.88878202,-1.10351980,0.01221001
1.90691710,-1.10351980,0.00976801
1.91839099,-1.10351980,0.01221001
1.92734909,-1.10351980,0.01709402
1.93728709,-1.10351980,0.01221001
1.94401598,-1.10351980,0.03174603
1.95387316,-1.10351980,0.02930403
1.96155405,-1.10351980,0.01953602
1.97291303,-1.10351980,0.02197802
1.98189616,-1.10351980,0.01953602
1.99136496,-1.10351980,0.02197802
2.00028110,-1.10351980,0.01953602
2.00953507,-1.10351980,0.01465201
2.02049613,-1.10351980,0.02930403
2.03130698,-1.10351980,0.01709402
2.03781700,-1.10351980,0.01709402
2.04312205,-1.10351980,0.02197802
2.05357194,-1.10351980,0.01953602
2.06398511,-1.10351980,0.03418803
2.07399702,-1.10351980,0.04639805
2.08539295,-1.10351980,0.03663004
2.09581304,-1.10351980,0.02197802
2.10506606,-1.10351980,0.01465201
2.11354399,-1.10351980,0.01953602
2.12300801,-1.10351980,0.01709402
2.13205194,-1.10351980,0.02686203
2.13906503,-1.10351980,0.01953602
2.14715099,-1.10351980,0.01709402
2.15687394,-1.10351980,0.01953602
2.16695595,-1.10351980,0.03907204
2.17505312,-1.10351980,0.01465201
2.18479800,-1.10351980,0.01465201
2.19495201,-1.10351980,0.02197802
2.20373011,-1.10351980,0.04151404
2.21436000,-1.10351980,0.02442003
2.22343707,-1.10351980,0.00976801
2.23268008,-1.10351980,0.01953602
2.24014902,-1.10351980,0.02686203
2.24651909,-1.10351980,0.05128205
2.25529313,-1.10351980,0.02686203
2.26561809,-1.10351980,0.02930403
2.27322602,-1.10351980,0.01465201
2.28058100,-1.10351980,0.03418803
2.29212499,-1.10351980,0.02930403
2.30084801,-1.10351980,0.01465201
2.31042314,-1.10351980,0.01953602
2.31997705,-1.10351980,0.02197802
2.32766414,-1.10351980,0.03174603
2.33651400,-1.10351980,0.00732601
2.34492016,-1.10351980,0.01709402
2.35454798,-1.10351980,0.01221001
2.36382008,-1.10351980,0.02197802
2.37200308,-1.10351980,0.02686203
2.38245797,-1.10351980,0.00976801
2.39034796,-1.10351980,0.02686203
2.39984202,-1.10351980,0.02442003
2.40784907,-1.10351980,0.01953602
2.41803503,-1.10351980,0.01465201
2.42638111,-1.10351980,0.03663004
2.43526316,-1.10351980,0.02442003
2.44433117,-1.10351980,0.03418803
2.45121503,-1.10351980,0.01953602
2.45827007,-1.10351980,0.01953602
2.46761203,-1.10351980,0.02930403
2.47734714,-1.10351980,0.01953602
2.48528099,-1.10351980,0.02930403
2.49605107,-1.10351980,0.03418803
2.50473499,-1.10351980,0.02197802
2.51558304,-1.10351980,0.02197802
2.52497506,-1.10351980,0.02930403
2.53360295,-1.10351980,0.02197802
2.54200196,-1.10351980,0.00976801
2.54773402,-1.10351980,0.02686203
2.55736494,-1.10351980,0.02442003
2.56694412,-1.10351980,0.02442003
2.57626009,-1.10351980,0.01953602
2.58545709,-1.10351980,0.03174603
2.59569407,-1.10351980,0.02197802
2.60306406,-1.10351980,0.01709402
2.61187696,-1.10351980,0.01465201
2.62386703,-1.10351980,0.03663004
2.63255215,-1.10351980,0.02197802
2.64327598,-1.10351980,0.00976801
2.65274215,-1.10351980,0.03418803
2.66138411,-1.10351980,0.03663004
2.67213511,-1.10351980,0.01465201
2.68168402,-1.10351980,0.01953602
2.69052410,-1.10351980,0.02197802
2.69926214,-1.10351980,0.01221001
2.70939612,-1.10351980,0.01221001
2.72107697,-1.10351980,0.01953602
2.72854400,-1.10351980,0.01953602
2.73556995,-1.10351980,0.02197802
2.74336505,-1.10351980,0.01953602
2.75095105,-1.10351980,0.01953602
2.75864196,-1.10351980,0.01953602
2.77018595,-1.10351980,0.02197802
2.77943397,-1.10351980,0.03174603
2.78864217,-1.10351980,0.01953602
2.79731417,-1.10351980,0.02442003
2.80763197,-1.10351980,0.01953602
2.81632495,-1.10351980,0.01953602
2.82607603,-1.10351980,0.02197802
2.83378816,-1.10351980,0.01465201
2.84264612,-1.10351980,0.03418803
2.85359502,-1.10351980,0.01221001
2.86247301,-1.10351980,0.05128205
2.87227702,-1.10351980,0.03174603
2.88238215,-1.10351980,0.02686203
2.89233613,-1.10351980,0.02442003
2.90173697,-1.10351980,0.01953602
2.91178799,-1.10351980,0.02442003
2.92155313,-1.10351980,0.02442003
2.93092513,-1.10351980,0.02442003
2.93956304,-1.10351980,0.02686203
2.94897795,-1.10351980,0.03907204
2.95884609,-1.10351980,0.02442003
2.96500611,-1.10351980,0.03663004
2.97643709,-1.10351980,0.01465201
2.98592496,-1.10351980,0.03174603
2.99618602,-1.10351980,0.01953602
3.00581503,-1.10351980,0.03418803
3.01705813,-1.10351980,0.02197802
3.02532411,-1.10351980,0.02197802
3.03776503,-1.10351980,0.01465201
3.04605103,-1.10351980,0.01465201
3.05578613,-1.10351980,0.00976801
3.06601095,-1.10351980,0.00732601
3.07653594,-1.10351980,0.01221001
3.08611512,-1.10351980,0.01221001
3.09447598,-1.10351980,0.01709402
3.10396099,-1.10351980,0.00976801
3.11320615,-1.10351980,0.02197802
3.12571716,-1.10351980,0.02442003
3.13572311,-1.10351980,0.03418803
3.14435196,-1.10351980,0.01953602
3.15454602,-1.10351980,0.03663004
3.16340899,-1.10351980,0.01953602
3.17201209,-1.10351980,0.02442003
3.18161798,-1.10351980,0.01709402
3.19129896,-1.10351980,0.03418803
3.19940495,-1.10351980,0.03663004
3.20784616,-1.10351980,0.02197802
3.21837807,-1.10351980,0.01465201
3.22791004,-1.10351980,0.03174603
3.23664999,-1.10351980,0.02930403
3.24596310,-1.10351980,0.02197802
3.25608015,-1.10351980,0.02442003
3.26370716,-1.10351980,0.01709402
3.27201295,-1.10351980,0.02930403
3.28433704,-1.10351980,0.02686203
3.29402900,-1.10351980,0.01709402
3.30260897,-1.10351980,0.02197802
3.31220412,-1.10351980,0.01953602
3.32067204,-1.10351980,0.01709402
3.33137512,-1.10351980,0.03174603
3.34019399,-1.10351980,0.03174603
3.34926510,-1.10351980,0.02197802
3.35952401,-1.10351980,0.01465201
3.36729002,-1.10351980,0.00976801
3.37419510,-1.10351980,0.02686203
3.38379407,-1.10351980,0.01221001
3.39334798,-1.10351980,0.02197802
3.40146995,-1.10351980,0.02686203
3.41134000,-1.10351980,0.02930403
3.42092705,-1.10351980,0.01709402
3.42972803,-1.10351980,0.02930403
3.43805504,-1.10351980,0.02930403
3.44845414,-1.10351980,0.01709402
3.45715213,-1.10351980,0.01465201
3.46655703,-1.10351980,0.01953602
3.47612500,-1.10351980,0.02930403
3.49189711,-1.10351980,0.02197802
3.50635195,-1.10351980,0.03174603
3.51979303,-1.10351980,0.02442003
3.53258014,-1.10349150,0.01465201
3.54832506,-1.10349150,0.01953602
3.55964112,-1.10349150,0.02930403
3.57024598,-1.10349150,0.01953602
3.58729815,-1.10349150,0.02197802
3.60203409,-1.10349150,0.01953602
3.61516309,-1.10349150,0.01465201
3.62957811,-1.10349150,0.01465201
3.64208913,-1.10349150,0.01465201
3.65192199,-1.10349150,0.02442003
3.66060710,-1.10349150,0.00976801
3.67038012,-1.10349150,0.01465201
3.68079901,-1.10349150,0.03907204
3.69162202,-1.10349150,0.03418803
3.70100904,-1.10349150,0.01709402
3.71003604,-1.10349150,0.03174603
3.72076607,-1.10349150,0.02930403
3.72968316,-1.10349150,0.01953602
3.73922801,-1.10349150,0.03418803
3.74852800,-1.10349150,0.02686203
3.75743508,-1.10349150,0.01709402
3.76710916,-1.10349150,0.01465201
3.77498698,-1.10349150,0.01221001
3.78265095,-1.10349150,0.01709402
3.79254913,-1.10349150,0.02442003
3.80206800,-1.10349150,0.01465201
3.81170511,-1.10349150,0.00976801
3.82228017,-1.10349150,0.01953602
3.83196402,-1.10349150,0.02686203
3.84166098,-1.10349150,0.01465201
3.85125208,-1.10349150,0.01953602
3.86175895,-1.10349150,0.02686203
3.87007809,-1.10349150,0.02442003
3.87705803,-1.10349150,0.00976801
3.88420010,-1.10349150,0.02930403
3.89234710,-1.10349150,0.02197802
3.90159702,-1.10349150,0.02686203
3.91176105,-1.10349150,0.02686203
3.92017913,-1.10349150,0.03907204
3.92982817,-1.10349150,0.02442003
3.94155312,-1.10349150,0.01221001
3.94938803,-1.10349150,0.01709402
3.95804310,-1.10349150,0.01465201
3.96760917,-1.10349150,0.00976801
3.97643304,-1.10349150,0.02686203
3.98610806,-1.10349150,0.03418803
3.99752402,-1.10349150,0.03907204
4.00783300,-1.10349150,0.01465201
4.01626801,-1.10349150,0.02197802
4.02613997,-1.10349150,0.01953602
4.03516698,-1.10349150,0.01465201
4.04584098,-1.10349150,0.01709402
4.05461717,-1.10349150,0.03663004
4.06488800,-1.10349150,0.01465201
4.07333612,-1.10349150,0.03174603
4.08344913,-1.10349150,0.01221001
4.09039807,-1.10349150,0.01953602
4.10064912,-1.10349150,0.03174603
4.11000013,-1.10349150,0.01709402
4.11816406,-1.10349150,0.01953602
4.12768912,-1.10349150,0.02686203
4.13692713,-1.10349150,0.02930403
4.14841008,-1.10349150,0.01953602
4.15693307,-1.10349150,0.02197802
4.16770101,-1.10349150,0.01465201
4.17384005,-1.10349150,0.01465201
4.18490195,-1.10349150,0.01221001
4.19446111,-1.10349150,0.01221001
4.20374417,-1.10349150,0.01709402
4.21461201,-1.10349150,0.02686203
4.22326994,-1.10349150,0.01465201
4.23416305,-1.10349150,0.00976801
4.24290299,-1.10349150,0.03907204
4.25298905,-1.10349150,0.01953602
4.26395011,-1.10349150,0.01465201
4.27283502,-1.10349150,0.01709402
4.28223801,-1.10349150,0.01953602
4.28977609,-1.10349150,0.01953602
4.29814196,-1.10349150,0.01953602
4.30780411,-1.10349150,0.02930403
4.31625605,-1.10349150,0.01221001
4.32684207,-1.10349150,0.01709402
4.33628607,-1.10349150,0.02442003
4.34619904,-1.10349150,0.01953602
4.35661817,-1.10349150,0.02442003
4.36553717,-1.10349150,0.02930403
4.37424517,-1.10349150,0.02686203
4.38379097,-1.10349150,0.03418803
4.39128017,-1.10349150,0.01709402
4.39761496,-1.10349150,0.01709402
4.40851402,-1.10349150,0.02930403
4.41888213,-1.10349150,0.02930403
4.42725706,-1.10349150,0.01221001
4.43556809,-1.10349150,0.02197802
4.44472909,-1.10349150,0.03663004
4.45374203,-1.10349150,0.02686203
4.46337509,-1.10349150,0.01953602
4.47320914,-1.10349150,0.02930403
4.48293614,-1.10349150,0.02686203
4.49184108,-1.10349150,0.01221001
4.50190711,-1.10349150,0.01465201
4.51245117,-1.10349150,0.02686203
4.52126002,-1.10349150,0.01221001
4.53133106,-1.10349150,0.04151404
4.53909016,-1.10349150,0.02442003
4.54945111,-1.10349150,0.01465201
4.55778813,-1.10349150,0.01953602
4.56631017,-1.10349150,0.02930403
4.57695413,-1.10349150,0.01953602
4.58655214,-1.10349150,0.02686203
4.59433794,-1.10349150,0.02197802
4.60247207,-1.10349150,0.00976801
4.61289096,-1.10349150,0.01221001
4.62112713,-1.10349150,0.01953602
4.63044095,-1.10349150,0.02197802
4.64192915,-1.10349150,0.02930403
4.65118694,-1.10349150,0.01221001
4.66003799,-1.10349150,0.01465201
4.66833115,-1.10349150,0.04151404
4.67683697,-1.10349150,0.03418803
4.68723011,-1.10349150,0.01465201
4.69648099,-1.10349150,0.02442003
4.70439315,-1.10349150,0.01221001
4.71455407,-1.10349150,0.01709402
4.72461414,-1.10349150,0.01221001
4.73279405,-1.10349150,0.04151404
4.74234605,-1.10349150,0.03663004
4.75190997,-1.10349150,0.01709402
4.76127315,-1.10349150,0.00976801
4.76931596,-1.10349150,0.01221001
